%col 0
3834 1.966442
998 2.211853
5793 1.898604
2357 4.926840
6293 1.898604
7102 1.351075
4713 6.707252
8395 2.755383
2986 1.799313
582 0.722537
1829 1.643503
447 4.897019
2404 2.016546
5013 2.016546
5209 3.059285
809 3.503645
2838 4.619301
7217 0.710274
4400 2.838385
5895 3.714999
4587 2.838385
1249 2.838385
9081 3.951214
8755 6.499949
3508 5.234217
5540 6.241436
2569 2.312766
8641 1.883862
6789 3.442073
1450 1.995978
8961 5.323447
3104 3.552903
2251 5.219547
794 2.786780
5005 1.914742
6556 3.259521
9254 6.594202
5961 2.536599
4087 2.059250
5854 1.901844
3360 5.352076
6098 4.750431
2829 4.484194
8660 1.770451
4112 1.770451
353 1.770451
6209 4.560929
4845 2.656420
1544 2.508413
215 1.019407
4693 6.387670
9296 5.727310
3073 3.610062
7815 3.161902
688 5.724446
1045 4.543021
5994 5.221242
721 1.801078
4554 0.131812
4238 5.718616
6843 2.375660
5353 1.247773
214 5.009938
4941 1.125065
2279 4.061674
0 6.782031
5160 2.111370
2807 1.645919
5207 1.845271
8392 1.222879
4574 0.086487
%col 1
9226 5.194585
5337 5.194585
5732 3.101094
1045 4.373094
1924 1.594586
348 1.449267
3613 5.172613
9125 1.647826
3431 6.552437
9123 0.652415
2936 6.552437
3840 6.552437
2627 1.924132
1428 5.784856
8156 1.924132
9291 1.864997
80 5.897727
2279 5.778439
6173 4.796245
9293 0.988895
%col 2
8763 5.427964
3422 1.553327
7339 2.515179
4760 6.641973
438 0.693790
2680 1.553254
319 3.128913
5705 3.128913
2015 3.128913
238 3.128913
4603 2.643627
720 4.182109
6599 4.340969
556 5.847697
1697 2.096821
3115 3.147142
1365 5.578106
7489 1.398928
2246 2.547802
324 4.933147
7356 1.503331
5107 1.397878
8364 1.528411
9163 0.952618
6670 2.629186
1875 1.237056
7199 3.461074
1923 2.404022
6464 2.404022
450 4.399250
7598 1.386857
6056 6.510658
4770 1.794819
5568 1.794819
3294 1.755101
7052 4.315202
4358 4.169729
9285 2.019583
6133 1.893198
3827 1.893198
7102 2.312622
8204 5.854896
6741 1.385993
4278 5.629686
4171 4.654259
8215 6.538503
8879 5.629686
8600 1.583980
7114 3.345333
3366 5.985681
3520 6.722440
5488 1.073096
375 1.305821
5327 3.654099
8953 2.693389
8732 2.171133
103 1.868334
228 1.457600
1802 6.737765
9084 5.387994
2100 5.437778
2613 1.130374
3985 1.569492
559 5.173414
2559 3.523886
3746 1.178072
3214 5.614881
2533 4.418287
6965 6.026609
3055 4.637290
284 5.687962
1520 2.204737
5940 6.563486
7311 3.073727
7208 2.159244
4172 4.049588
9142 1.668608
1570 1.365251
9057 5.056490
4395 3.475484
2009 2.531046
5840 3.225823
3319 4.192378
682 3.732418
5021 5.619581
6091 5.415700
2873 3.819416
3769 2.707878
5698 1.135397
8518 5.954207
5769 5.255290
9382 4.321372
7996 1.832450
3665 6.877898
6854 6.877898
6004 2.926593
8534 3.237962
1194 1.705645
5688 1.909093
3512 1.578686
5540 1.653288
5398 1.189075
8473 3.252075
8760 2.187974
8288 2.502060
5680 1.090301
8053 4.741917
5565 2.466426
2829 5.693838
5353 3.961358
9291 2.600725
1881 5.294634
3177 6.806063
154 1.241526
8242 2.013150
5797 4.589957
5739 1.835547
2948 3.031760
9296 1.857012
4692 5.411796
6957 5.826357
794 4.668295
683 6.883422
7383 2.850460
910 6.690776
1135 2.040926
1786 2.281230
3450 3.540380
2879 2.426014
2808 1.863157
153 3.201333
4923 2.656776
4651 1.583878
2869 3.408585
6489 2.323717
3547 6.849269
6553 3.254459
3070 3.988640
5978 4.169052
8260 0.974172
590 3.511826
8830 3.964666
2419 2.547946
3360 6.399168
6954 2.159032
1105 4.769591
2135 3.883200
7205 2.913470
1953 5.754900
3548 2.946286
6788 2.257723
2727 2.758404
6471 5.027866
8660 2.823094
4112 2.823094
353 2.823094
289 1.080394
7611 5.135524
3488 1.995870
1793 3.598313
7740 2.746549
763 1.534453
9283 3.109521
9251 1.226320
8976 1.694615
9380 1.614460
5957 1.681065
5211 3.850175
6540 3.850175
2459 1.148320
9274 2.070591
4248 5.518799
2152 1.862129
2279 6.253012
7229 4.002155
5357 2.551684
9293 1.992011
294 2.044620
6262 1.844105
8427 5.122054
4941 3.400249
6861 5.722959
3507 0.912035
3553 5.482788
1340 4.723643
7988 1.103712
6009 6.565322
5892 3.951834
4805 3.486684
4792 4.877998
5644 4.093172
4477 5.630065
5662 5.630065
2569 2.766045
5741 2.825602
7266 1.524805
235 5.151111
688 1.250242
1045 5.380642
934 4.405730
721 6.814683
4554 6.502000
6326 2.455208
4238 2.032376
6843 1.805347
8603 1.069591
6458 1.156169
2190 5.446876
4793 2.363320
4650 1.417081
4691 6.233114
3073 4.897564
2732 1.070874
2317 0.686084
6201 3.671665
7960 1.479668
0 1.586794
4761 5.201587
2298 6.401900
660 2.079744
18 0.749660
7358 1.076084
5160 5.598006
2807 6.015387
4574 4.992479
8961 2.230310
8908 5.905667
%col 3
285 6.525261
7150 3.829773
7325 4.257673
7359 1.242669
6642 4.815309
3356 4.815309
2183 3.737600
4860 3.255069
8346 4.815309
1072 2.338999
1697 4.312297
6378 3.328951
3038 3.877895
1205 3.397252
9188 1.947770
7070 1.790573
7356 0.362719
7058 1.514702
7199 2.109087
5428 4.937143
7433 1.706832
3396 3.326266
348 2.795946
4172 5.515484
4171 2.028344
7130 2.401513
7424 2.401513
4661 5.718379
8443 3.259540
717 4.904865
4531 5.417120
1369 5.736277
3761 3.983782
8150 2.738826
8097 2.159766
2168 0.918209
5748 4.289095
4949 6.134549
228 0.426397
7626 4.535028
8119 2.609960
3329 3.688144
2870 1.793793
6411 1.836122
6143 1.836122
2452 2.239744
924 4.672252
414 2.593632
7396 1.090454
1536 6.620210
7383 3.619265
7079 1.717756
2551 3.700945
8225 4.792941
4834 4.503343
3494 3.404585
8734 5.263855
5513 6.548532
6583 1.339133
2627 2.306621
1428 6.167344
8156 2.306621
6009 1.149840
7195 5.354969
3517 5.354969
432 2.717855
8288 5.241435
3508 1.991775
8888 4.078736
6198 4.113507
1399 5.493717
4985 5.613062
843 1.695737
9274 1.175758
1547 3.782583
1970 4.096033
8708 3.031925
5125 4.096033
6553 2.994648
1033 4.564459
8268 4.639710
4653 2.719192
2666 1.696840
1135 2.849396
4650 2.768753
608 1.885455
7255 2.461821
1123 2.461821
2252 2.506006
2874 2.506006
8155 2.506006
9027 2.506006
550 2.506006
590 6.476181
4170 2.525936
289 0.422518
6471 2.855451
5837 3.916445
6873 1.664920
294 1.766982
6262 3.070630
0 4.164135
7358 0.451190
2807 5.735147
%col 4
8763 5.427964
3422 1.553327
7339 2.515179
4760 6.641973
438 0.693790
2680 1.553254
319 3.128913
5705 3.128913
2015 3.128913
238 3.128913
4603 2.643627
720 4.182109
6599 4.340969
556 5.847697
1697 2.096821
3115 3.147142
1365 5.578106
7489 1.398928
2246 2.547802
324 4.933147
7356 1.503331
5107 1.397878
8364 1.528411
9163 0.952618
6670 2.629186
1875 1.237056
7199 3.461074
1923 2.404022
6464 2.404022
450 4.399250
7598 1.386857
6056 6.510658
4770 1.794819
5568 1.794819
3294 1.755101
7052 4.315202
4358 4.169729
9285 2.019583
6133 1.893198
3827 1.893198
7102 2.312622
8204 5.854896
6741 1.385993
4278 5.629686
4171 4.654259
8215 6.538503
8879 5.629686
8600 1.583980
7114 3.345333
3366 5.985681
3520 6.722440
5488 1.073096
375 1.305821
5327 3.654099
8953 2.693389
8732 2.171133
103 1.868334
228 1.457600
1802 6.737765
9084 5.387994
2100 5.437778
2613 1.130374
3985 1.569492
559 5.173414
2559 3.523886
3746 1.178072
3214 5.614881
2533 4.418287
6965 6.026609
3055 4.637290
284 5.687962
1520 2.204737
5940 6.563486
7311 3.073727
7208 2.159244
4172 4.049588
9142 1.668608
1570 1.365251
9057 5.056490
4395 3.475484
2009 2.531046
5840 3.225823
3319 4.192378
682 3.732418
5021 5.619581
6091 5.415700
2873 3.819416
3769 2.707878
5698 1.135397
8518 5.954207
5769 5.255290
9382 4.321372
7996 1.832450
3665 6.877898
6854 6.877898
6004 2.926593
8534 3.237962
1194 1.705645
5688 1.909093
3512 1.578686
5540 1.653288
5398 1.189075
8473 3.252075
8760 2.187974
8288 2.502060
5680 1.090301
8053 4.741917
5565 2.466426
2829 5.693838
5353 3.961358
9291 2.600725
1881 5.294634
3177 6.806063
154 1.241526
8242 2.013150
5797 4.589957
5739 1.835547
2948 3.031760
9296 1.857012
4692 5.411796
6957 5.826357
794 4.668295
683 6.883422
7383 2.850460
910 6.690776
1135 2.040926
1786 2.281230
3450 3.540380
2879 2.426014
2808 1.863157
153 3.201333
4923 2.656776
4651 1.583878
2869 3.408585
6489 2.323717
3547 6.849269
6553 3.254459
3070 3.988640
5978 4.169052
8260 0.974172
590 3.511826
8830 3.964666
2419 2.547946
3360 6.399168
6954 2.159032
1105 4.769591
2135 3.883200
7205 2.913470
1953 5.754900
3548 2.946286
6788 2.257723
2727 2.758404
6471 5.027866
8660 2.823094
4112 2.823094
353 2.823094
289 1.080394
7611 5.135524
3488 1.995870
1793 3.598313
7740 2.746549
763 1.534453
9283 3.109521
9251 1.226320
8976 1.694615
9380 1.614460
5957 1.681065
5211 3.850175
6540 3.850175
2459 1.148320
9274 2.070591
4248 5.518799
2152 1.862129
2279 6.253012
7229 4.002155
5357 2.551684
9293 1.992011
294 2.044620
6262 1.844105
8427 5.122054
4941 3.400249
6861 5.722959
3507 0.912035
3553 5.482788
1340 4.723643
7988 1.103712
6009 6.565322
5892 3.951834
4805 3.486684
4792 4.877998
5644 4.093172
4477 5.630065
5662 5.630065
2569 2.766045
5741 2.825602
7266 1.524805
235 5.151111
688 1.250242
1045 5.380642
934 4.405730
721 6.814683
4554 6.502000
6326 2.455208
4238 2.032376
6843 1.805347
8603 1.069591
6458 1.156169
2190 5.446876
4793 2.363320
4650 1.417081
4691 6.233114
3073 4.897564
2732 1.070874
2317 0.686084
6201 3.671665
7960 1.479668
0 1.586794
4761 5.201587
2298 6.401900
660 2.079744
18 0.749660
7358 1.076084
5160 5.598006
2807 6.015387
4574 4.992479
8961 2.230310
8908 5.905667
%col 5
9225 4.154846
569 4.758099
6736 4.758099
3769 0.807235
4240 0.737638
5926 0.004689
%col 6
5524 5.212091
593 5.212091
2680 1.242774
6974 3.683724
5462 3.148937
1550 2.704034
4371 4.119996
5249 2.954049
917 6.684951
6378 2.441490
3038 2.990434
1205 2.509791
2246 0.789816
6329 1.603414
1544 2.446374
6064 1.587002
5144 3.590598
230 2.491940
2540 1.813532
3382 6.476991
569 2.193714
299 5.572185
6736 2.193714
8501 2.872956
7300 2.065286
6441 2.211108
5892 1.485206
%col 7
2592 2.383054
6556 3.114615
1205 1.670471
700 0.522379
6315 4.176445
1204 0.402182
2807 4.879452
4384 2.477935
6845 3.039181
2594 2.937860
6847 5.965892
6803 1.140732
6627 2.348330
5997 1.744399
6665 4.610490
4833 3.709899
534 4.071282
1203 0.280217
%col 8
9307 3.619463
5613 3.619463
6810 1.846227
7212 1.846227
5965 1.670158
4595 2.670631
3601 2.670631
6968 2.670631
324 4.936578
8875 6.854278
713 2.670631
8977 1.985333
2232 1.985333
2511 2.762604
4165 2.762604
171 2.762604
2044 2.762604
3885 2.762604
4628 3.020742
3497 1.662852
5888 3.058935
6328 2.040876
5392 2.559102
6329 6.827808
3958 2.559102
7242 2.559102
2117 6.495927
8199 2.287529
6060 2.997411
940 1.814757
2756 1.814757
5171 1.814757
7739 2.737880
1594 2.737880
1570 3.302887
2744 5.451628
5818 3.734218
4001 2.028578
2830 2.028578
563 2.028578
8978 3.786199
8188 3.385850
8892 2.197043
3263 5.086436
6788 4.857319
6201 2.148702
998 2.107098
3267 4.440759
6809 6.573222
6099 1.420601
5817 0.027791
%col 9
5261 1.107913
5619 4.578056
1497 5.227228
5260 0.092698